"time","x","y","position","velocity","acceleration","jerk","heading"
0,0.311045,2.72433,0,0,0,0,-4.92275e-06
0.02,0.311092,2.72433,4.69701e-05,0.00234851,0.117425,5.87126,-1.0807e-07
0.04,0.311902,2.72433,0.000857197,0.0405114,1.90814,89.5359,-3.671e-05
0.06,0.313254,2.72433,0.00220848,0.0675642,1.35264,-27.7751,-0.000243486
0.08,0.315147,2.72433,0.00410217,0.0946846,1.35602,0.169166,-0.00083849
0.1,0.317585,2.72433,0.00654016,0.121899,1.36074,0.235911,-0.00212581
0.12,0.32057,2.72433,0.00952486,0.149235,1.36678,0.301758,-0.00449441
0.14,0.324104,2.72433,0.0130592,0.176717,1.37411,0.366549,-0.00841677
0.16,0.328192,2.72433,0.0171466,0.204371,1.38271,0.430033,-0.0144472
0.18,0.332836,2.72433,0.0217911,0.232222,1.39256,0.492322,-0.0232203
0.2,0.338042,2.72433,0.026997,0.260295,1.40361,0.552857,-0.0354487
0.22,0.343814,2.72432,0.0327692,0.288612,1.41588,0.613436,-0.0519217
0.24,0.350158,2.72431,0.0391132,0.317198,1.42926,0.668946,-0.0735031
0.26,0.35708,2.7243,0.0460346,0.346074,1.4438,0.727014,-0.10113
0.28,0.364585,2.72429,0.0535399,0.375262,1.45943,0.781698,-0.13581
0.3,0.372681,2.72427,0.0616356,0.404787,1.47622,0.839425,-0.178622
0.32,0.381374,2.72424,0.070329,0.434668,1.49407,0.89258,-0.230715
0.34,0.390672,2.7242,0.0796275,0.464928,1.51299,0.945897,-0.293307
0.36,0.400584,2.72413,0.0895394,0.49559,1.53312,1.00653,-0.367685
0.38,0.411116,2.72406,0.100072,0.526622,1.55158,0.922814,-0.455207
0.4,0.42228,2.72396,0.111236,0.558202,1.57898,1.36995,-0.557303
0.42,0.434082,2.72384,0.123039,0.590154,1.59761,0.931841,-0.675476
0.44,0.446534,2.72367,0.135492,0.62265,1.62481,1.35968,-0.811309
0.46,0.459646,2.72347,0.148605,0.655672,1.65108,1.31335,-0.966463
0.48,0.473428,2.72322,0.162389,0.689191,1.67596,1.24447,-1.14269
0.5,0.48789,2.7229,0.176855,0.723303,1.7056,1.48163,-1.34182
0.52,0.503045,2.72252,0.192015,0.757978,1.73375,1.40747,-1.5658
0.54,0.518905,2.72205,0.207882,0.793358,1.76901,1.76331,-1.81667
0.56,0.535482,2.72148,0.224469,0.829349,1.79957,1.52792,-2.09658
0.58,0.55279,2.72081,0.24179,0.866066,1.83581,1.81189,-2.40781
0.6,0.570843,2.71999,0.259861,0.903562,1.8748,1.94946,-2.75277
0.62,0.589654,2.71903,0.278697,0.941778,1.91081,1.80043,-3.13401
0.64,0.609239,2.71789,0.298315,0.980891,1.95565,2.2422,-3.55422
0.66,0.629612,2.71654,0.318733,1.0209,2.00039,2.23675,-4.01626
0.68,0.650789,2.71495,0.339969,1.06183,2.04636,2.29858,-4.52317
0.7,0.672787,2.7131,0.362044,1.10374,2.09565,2.46475,-5.07814
0.72,0.695619,2.71096,0.384976,1.14662,2.14396,2.41537,-5.68455
0.74,0.719303,2.70846,0.408792,1.1908,2.20895,3.24972,-6.34596
0.76,0.743853,2.70558,0.433511,1.23593,2.2564,2.37231,-7.06611
0.78,0.769284,2.70225,0.459159,1.28241,2.32427,3.39341,-7.84888
0.8,0.795609,2.69842,0.485761,1.3301,2.38446,3.00979,-8.69832
0.82,0.82284,2.69403,0.513343,1.3791,2.44988,3.27087,-9.61856
0.84,0.850981,2.68902,0.541928,1.42925,2.50785,2.89833,-10.6138
0.86,0.88004,2.68329,0.571546,1.4809,2.58229,3.72212,-11.6881
0.88,0.910014,2.67677,0.602221,1.53373,2.64131,2.95083,-12.8457
0.9,0.940895,2.66938,0.633973,1.5876,2.69364,2.61658,-14.0902
0.92,0.972665,2.66101,0.666827,1.64273,2.75649,3.14241,-15.4251
0.94,1.0053,2.65158,0.700798,1.69852,2.78939,1.64533,-16.8531
0.96,1.03876,2.64096,0.735899,1.75505,2.82691,1.87573,-18.3761
0.98,1.07298,2.62905,0.772137,1.81189,2.84196,0.752741,-19.995
1,1.10778,2.61579,0.809378,1.86209,2.50986,-16.6052,-21.7033
1.02,1.14285,2.60121,0.847352,1.89867,1.8289,-34.048,-23.486
1.04,1.17782,2.58533,0.885761,1.92046,1.08942,-36.974,-25.3252
1.06,1.21251,2.56823,0.92444,1.93394,0.67397,-20.7725,-27.2065
1.08,1.24678,2.54987,0.963317,1.94386,0.496354,-8.88076,-29.1203
1.1,1.28054,2.53032,1.00233,1.95052,0.332739,-8.18077,-31.0563
1.12,1.31367,2.50959,1.04141,1.95427,0.187529,-7.2605,-33.0036
1.14,1.34608,2.48775,1.0805,1.95421,-0.00283887,-9.51839,-34.9507
1.16,1.37767,2.46486,1.11951,1.9505,-0.185561,-9.13609,-36.8866
1.18,1.40837,2.44101,1.15838,1.94359,-0.345457,-7.99483,-38.8002
1.2,1.43811,2.41629,1.19705,1.93364,-0.497592,-7.60676,-40.6814
1.22,1.46683,2.39078,1.23547,1.92086,-0.639117,-7.07624,-42.5207
1.24,1.49451,2.36459,1.27357,1.90522,-0.781665,-7.12739,-44.3099
1.26,1.52112,2.33781,1.31132,1.88736,-0.893372,-5.58534,-46.042
1.28,1.54665,2.31054,1.34868,1.86783,-0.976325,-4.14768,-47.7111
1.3,1.57112,2.28288,1.38562,1.84693,-1.04503,-3.43507,-49.3128
1.32,1.59454,2.25488,1.42211,1.82495,-1.09908,-2.70251,-50.8437
1.34,1.61695,2.22663,1.45817,1.80269,-1.11278,-0.685127,-52.3016
1.36,1.63836,2.19821,1.49375,1.77928,-1.17054,-2.88815,-53.6853
1.38,1.65884,2.16967,1.52888,1.75633,-1.14745,1.15443,-54.9944
1.4,1.67841,2.14107,1.56354,1.73289,-1.17229,-1.24185,-56.2293
1.42,1.69714,2.11243,1.59775,1.71062,-1.11323,2.9528,-57.3908
1.44,1.71505,2.08382,1.63151,1.68794,-1.134,-1.03821,-58.4803
1.46,1.73222,2.05526,1.66483,1.66619,-1.08744,2.3277,-59.4994
1.48,1.74869,2.02678,1.69774,1.64515,-1.05214,1.7651,-60.4501
1.5,1.76449,1.99839,1.73022,1.62428,-1.04379,0.417479,-61.3343
1.52,1.77967,1.97013,1.76231,1.60432,-0.997704,2.30445,-62.1544
1.54,1.79429,1.94199,1.79401,1.58527,-0.952696,2.25043,-62.9123
1.56,1.80839,1.91402,1.82534,1.56652,-0.937235,0.773009,-63.6103
1.58,1.822,1.88619,1.85632,1.5488,-0.886366,2.54347,-64.2503
1.6,1.83516,1.85853,1.88694,1.53121,-0.879497,0.343467,-64.8344
1.62,1.84791,1.83106,1.91724,1.51453,-0.833566,2.29655,-65.3645
1.64,1.86029,1.80377,1.9472,1.49823,-0.815177,0.919407,-65.8422
1.66,1.87232,1.77668,1.97684,1.48223,-0.800248,0.746456,-66.2691
1.68,1.88404,1.74977,2.00619,1.46745,-0.73859,3.08293,-66.6468
1.7,1.89547,1.72307,2.03524,1.45234,-0.75572,-0.856532,-66.9765
1.72,1.90666,1.69658,2.06399,1.43757,-0.738294,0.871313,-67.2594
1.74,1.9176,1.67029,2.09247,1.42378,-0.689848,2.42229,-67.4964
1.76,1.92835,1.64423,2.12066,1.40948,-0.71505,-1.26009,-67.6884
1.78,1.93891,1.61839,2.14857,1.39579,-0.684449,1.53003,-67.8361
1.8,1.94932,1.59278,2.17622,1.38242,-0.668305,0.807245,-67.9399
1.82,1.95958,1.5674,2.20359,1.3687,-0.686225,-0.896033,-68.0004
1.84,1.96973,1.54227,2.2307,1.35507,-0.681209,0.250827,-68.0176
1.86,1.97978,1.51738,2.25754,1.34216,-0.645557,1.78256,-67.9917
1.88,1.98976,1.49276,2.28411,1.32839,-0.688517,-2.14796,-67.9226
1.9,1.99966,1.46839,2.31041,1.31499,-0.669898,0.930932,-67.81
1.92,2.00952,1.4443,2.33644,1.30158,-0.670781,-0.0441365,-67.6535
1.94,2.01935,1.42049,2.36219,1.28771,-0.693302,-1.12607,-67.4525
1.96,2.02917,1.39699,2.38766,1.27352,-0.709742,-0.821976,-67.2064
1.98,2.03898,1.37379,2.41285,1.2595,-0.700882,0.442985,-66.9142
2,2.04881,1.35093,2.43774,1.24444,-0.752939,-2.60285,-66.575
2.02,2.05867,1.32839,2.46234,1.22991,-0.726365,1.32871,-66.1876
2.04,2.06855,1.30621,2.48663,1.21426,-0.782449,-2.8042,-65.7505
2.06,2.07849,1.28439,2.51059,1.19847,-0.789511,-0.353123,-65.2625
2.08,2.08848,1.26297,2.53424,1.18218,-0.814535,-1.2512,-64.7218
2.1,2.09854,1.24194,2.55755,1.16564,-0.82727,-0.636728,-64.1266
2.12,2.10868,1.22134,2.58051,1.14799,-0.882141,-2.74357,-63.4751
2.14,2.11889,1.20119,2.6031,1.12945,-0.927386,-2.26222,-62.7653
2.16,2.12919,1.1815,2.62532,1.11092,-0.926477,0.0454173,-61.9951
2.18,2.13957,1.1623,2.64715,1.09155,-0.968553,-2.10376,-61.1623
2.2,2.15006,1.1436,2.66858,1.07162,-0.99624,-1.38439,-60.2649
2.22,2.16064,1.12544,2.6896,1.05086,-1.03811,-2.0936,-59.3007
2.24,2.1713,1.10783,2.71019,1.02938,-1.07409,-1.79895,-58.2676
2.26,2.18205,1.0908,2.73033,1.00722,-1.10807,-1.6988,-57.1638
2.28,2.1929,1.07435,2.75003,0.985029,-1.10933,-0.0633572,-55.9877
2.3,2.20384,1.05852,2.76928,0.962362,-1.13335,-1.20074,-54.738
2.32,2.21486,1.04331,2.78806,0.939172,-1.1595,-1.30776,-53.414
2.34,2.22596,1.02873,2.80638,0.91582,-1.16756,-0.402854,-52.0153
2.36,2.23713,1.01479,2.82424,0.89312,-1.13502,1.62696,-50.5427
2.38,2.24836,1.0015,2.84165,0.870239,-1.14406,-0.451707,-48.9974
2.4,2.25968,0.98885,2.85862,0.848747,-1.07458,3.47374,-47.3819
2.42,2.27107,0.976829,2.87518,0.827967,-1.03898,1.77994,-45.6997
2.44,2.28254,0.965424,2.89136,0.808873,-0.954705,4.2139,-43.9557
2.46,2.2941,0.954616,2.90718,0.791192,-0.884044,3.53308,-42.1558
2.48,2.30577,0.94438,2.92271,0.776267,-0.746297,6.88732,-40.3074
2.5,2.31759,0.934689,2.93799,0.76421,-0.602846,7.17258,-38.419
2.52,2.32957,0.92551,2.95308,0.754457,-0.48763,5.76077,-36.5
2.54,2.34175,0.916814,2.96804,0.748187,-0.313516,8.70571,-34.561
2.56,2.35416,0.908566,2.98295,0.745388,-0.139916,8.68,-32.6129
2.58,2.36687,0.900738,2.99788,0.746299,0.0455411,9.27285,-30.667
2.6,2.37991,0.893304,3.01288,0.7502,0.195047,7.47528,-28.7346
2.62,2.39332,0.88624,3.02804,0.757966,0.388287,9.66204,-26.8265
2.64,2.40715,0.87953,3.04341,0.768553,0.529371,7.05417,-24.9529
2.66,2.42142,0.873164,3.05904,0.781606,0.652612,6.16203,-23.1245
2.68,2.43612,0.867156,3.07492,0.793733,0.60639,-2.31107,-21.3565
2.7,2.45115,0.861533,3.09097,0.802612,0.443927,-8.12317,-19.6663
2.72,2.46643,0.856314,3.10712,0.807234,0.231087,-10.642,-18.067
2.74,2.4819,0.851494,3.12332,0.810228,0.149729,-4.06786,-16.5634
2.76,2.49753,0.847057,3.13957,0.812331,0.105153,-2.22884,-15.1545
2.78,2.5133,0.842983,3.15586,0.814426,0.104736,-0.0208478,-13.8382
2.8,2.52917,0.839255,3.17216,0.815058,0.0315908,-3.65724,-12.6116
2.82,2.54511,0.835858,3.18845,0.814808,-0.0124665,-2.20286,-11.4712
2.84,2.56107,0.832771,3.20471,0.812908,-0.0950153,-4.12744,-10.4131
2.86,2.57705,0.829979,3.22093,0.811127,-0.0890394,0.298797,-9.43337
2.88,2.59298,0.827463,3.23706,0.806283,-0.242208,-7.65841,-8.52771
2.9,2.60885,0.825203,3.25308,0.801259,-0.251227,-0.450952,-7.69199
2.92,2.62462,0.823183,3.26898,0.794971,-0.314393,-3.1583,-6.92209
2.94,2.64025,0.821384,3.28472,0.786873,-0.404914,-4.52606,-6.21401
2.96,2.65573,0.819789,3.30028,0.777916,-0.447804,-2.14448,-5.56388
2.98,2.67101,0.81838,3.31563,0.767606,-0.51553,-3.38634,-4.968
3,2.6861,0.817143,3.33077,0.756932,-0.533688,-0.907873,-4.42286
3.02,2.70094,0.81606,3.34565,0.743923,-0.650477,-5.83947,-3.92511
3.04,2.71553,0.815117,3.36027,0.731078,-0.642251,0.41132,-3.47159
3.06,2.72985,0.814302,3.37461,0.716926,-0.707572,-3.26607,-3.0593
3.08,2.74386,0.813599,3.38864,0.701504,-0.771097,-3.17622,-2.68542
3.1,2.75756,0.812998,3.40236,0.68583,-0.783688,-0.62956,-2.34728
3.12,2.77093,0.812486,3.41573,0.668939,-0.844565,-3.04386,-2.04237
3.14,2.78396,0.812053,3.42877,0.651858,-0.854046,-0.474062,-1.7683
3.16,2.79662,0.811689,3.44143,0.633118,-0.937014,-4.1484,-1.52283
3.18,2.80891,0.811386,3.45373,0.614745,-0.918649,0.918269,-1.30382
3.2,2.82081,0.811136,3.46563,0.595265,-0.973979,-2.76649,-1.10925
3.22,2.83233,0.81093,3.47715,0.575713,-0.977605,-0.181331,-0.93721
3.24,2.84342,0.810765,3.48824,0.554605,-1.05541,-3.89,-0.785875
3.26,2.85409,0.81063,3.49891,0.533473,-1.05662,-0.0605835,-0.653518
3.28,2.86432,0.810524,3.50915,0.511834,-1.08192,-1.26526,-0.538492
3.3,2.87413,0.810441,3.51895,0.490218,-1.08084,0.0543144,-0.439235
3.32,2.88347,0.810376,3.52829,0.467141,-1.15381,-3.6488,-0.354257
3.34,2.89235,0.810327,3.53718,0.444129,-1.15061,0.160084,-0.282144
3.36,2.90078,0.810289,3.5456,0.421202,-1.14636,0.212735,-0.221554
3.38,2.90871,0.810262,3.55354,0.396881,-1.21604,-3.48437,-0.171215
3.4,2.91618,0.810243,3.561,0.373188,-1.18467,1.56888,-0.129924
3.42,2.92314,0.810229,3.56796,0.348143,-1.25224,-3.37851,-0.0965471
3.44,2.9296,0.81022,3.57443,0.323269,-1.2437,0.426555,-0.0700219
3.46,2.93558,0.810214,3.5804,0.298587,-1.23411,0.479824,-0.0493554
3.48,2.94103,0.81021,3.58585,0.272619,-1.29839,-3.21413,-0.0336266
3.5,2.94597,0.810208,3.59079,0.246888,-1.28654,0.592569,-0.021988
3.52,2.95039,0.810206,3.59522,0.221418,-1.27352,0.650832,-0.0136671
3.54,2.95429,0.810205,3.59911,0.194732,-1.33432,-3.03982,-0.00796814
3.56,2.95766,0.810205,3.60248,0.168354,-1.31889,0.771395,-0.00427417
3.58,2.9605,0.810205,3.60533,0.142309,-1.30222,0.833714,-0.00204858
3.6,2.96281,0.810205,3.60763,0.115124,-1.35927,-2.85246,-0.00083705
3.62,2.96458,0.810205,3.60941,0.0888237,-1.31502,2.2125,-0.000268999
3.64,2.96581,0.810205,3.61064,0.0614348,-1.36944,-2.72146,-5.89682e-05
3.66,2.96652,0.810205,3.61135,0.0354839,-1.29755,3.59483,-6.94456e-06
3.68,2.96682,0.810205,3.61165,0.0149979,-1.0243,13.6626,-2.49659e-07
3.7,2.96689,0.810205,3.61172,0.00349992,-0.5749,22.4698,-1.667e-13
3.72,2.96689,0.810205,3.61172,0,-0.174996,19.9952,-1.667e-13
