"time","x","y","position","velocity","acceleration","jerk","heading"
0,17.8396,109.685,0,0,0,0,9.56264e-08
0.02,17.8518,109.685,0.0121999,0.609997,30.4999,1524.99,3.13975e-07
0.04,17.8946,109.685,0.0549985,2.13993,76.4965,2299.83,6.32883e-06
0.06,17.9707,109.685,0.131091,3.80464,83.2356,336.959,3.58565e-05
0.08,18.0895,109.685,0.249868,5.93885,106.711,1173.74,0.000130039
0.1,18.2558,109.685,0.416212,8.31719,118.917,610.338,0.000359649
0.12,18.4696,109.685,0.629999,10.6894,118.609,-15.4368,0.000820839
0.14,18.7309,109.685,0.891301,13.0651,118.784,8.79354,0.00163496
0.16,19.0396,109.685,1.19998,15.434,118.446,-16.9235,0.00294684
0.18,19.3956,109.685,1.556,17.8009,118.344,-5.07854,0.00492281
0.2,19.799,109.685,1.95941,20.1705,118.481,6.83499,0.00774823
0.22,20.2497,109.685,2.41006,22.5326,118.108,-18.6574,0.0116248
0.24,20.7475,109.685,2.9079,24.8922,117.976,-6.57381,0.0167677
0.26,21.2926,109.685,3.45298,27.2539,118.089,5.62908,0.023402
0.28,21.8848,109.686,4.04524,29.6129,117.948,-7.06614,0.0317591
0.3,22.524,109.686,4.68442,31.959,117.305,-32.1581,0.0420734
0.32,23.2103,109.687,5.37066,34.3122,117.663,17.9096,0.0545774
0.34,23.9435,109.687,6.10392,36.6627,117.524,-6.94096,0.0694985
0.36,24.7235,109.688,6.88393,39.0006,116.891,-31.6211,0.0870536
0.38,25.5505,109.69,7.71095,41.3509,117.519,31.385,0.107445
0.4,26.4242,109.692,8.58463,43.6841,116.656,-43.1572,0.130857
0.42,27.3447,109.694,9.50514,46.0253,117.06,20.1965,0.157449
0.44,28.3119,109.697,10.4723,48.3599,116.732,-16.4143,0.187351
0.46,29.3259,109.701,11.4863,50.6984,116.923,9.5607,0.220663
0.48,30.3865,109.705,12.5469,53.0311,116.636,-14.3362,0.257445
0.5,31.4938,109.71,13.6542,55.3637,116.629,-0.343729,0.297715
0.52,32.6478,109.717,14.8082,57.7016,116.899,13.4602,0.341446
0.54,33.8485,109.724,16.0089,60.0357,116.701,-9.8532,0.388559
0.56,35.0959,109.733,17.2564,62.3713,116.783,4.07273,0.438924
0.58,36.3901,109.744,18.5507,64.7144,117.155,18.5946,0.492351
0.6,37.7311,109.756,19.8917,67.0507,116.814,-17.0192,0.54859
0.62,39.119,109.77,21.2797,69.4009,117.511,34.8329,0.607328
0.64,40.554,109.786,22.7148,71.756,117.752,12.0552,0.668189
0.66,42.0361,109.804,24.1969,74.1064,117.524,-11.4076,0.73073
0.68,43.5654,109.825,25.7264,76.4735,118.354,41.4961,0.794438
0.7,45.142,109.847,27.3032,78.8377,118.21,-7.1827,0.858738
0.72,46.7662,109.873,28.9276,81.22,119.112,45.0919,0.922986
0.74,48.4381,109.9,30.5997,83.6061,119.304,9.60083,0.986473
0.76,50.1577,109.931,32.3196,85.9967,119.533,11.4538,1.04843
0.78,51.9256,109.964,34.0878,88.4077,120.548,50.739,1.10803
0.8,53.7416,110,35.9042,90.8194,120.588,1.9803,1.16439
0.82,55.6063,110.039,37.7692,93.2526,121.66,53.6114,1.21658
0.84,57.5196,110.08,39.683,95.6876,121.75,4.52236,1.26364
0.86,59.482,110.125,41.6459,98.1449,122.865,55.7431,1.30456
0.88,61.4935,110.171,43.6579,100.604,122.968,5.1362,1.33833
0.9,63.5546,110.22,45.7196,103.081,123.855,44.3617,1.3639
0.92,65.6655,110.27,47.8311,105.575,124.693,41.9093,1.38027
0.94,67.8216,110.322,49.9878,107.837,113.071,-581.135,1.3864
0.96,70.0136,110.375,52.1805,109.632,89.7803,-1164.51,1.38146
0.98,72.2323,110.429,54.3999,110.97,66.8795,-1145.04,1.36485
1,74.4682,110.481,56.6364,111.825,42.7663,-1205.66,1.33627
1.02,76.7096,110.533,58.8784,112.1,13.7163,-1452.5,1.29575
1.04,78.9449,110.582,61.1142,111.793,-15.3201,-1451.82,1.24371
1.06,81.1643,110.629,63.3341,110.993,-40.0013,-1234.06,1.18081
1.08,83.3581,110.673,65.5283,109.711,-64.097,-1204.79,1.10801
1.1,85.5165,110.713,67.6871,107.939,-88.598,-1225.05,1.02652
1.12,87.6319,110.75,69.8028,105.786,-107.663,-953.265,0.937667
1.14,89.7012,110.782,71.8724,103.478,-115.405,-387.066,0.84268
1.16,91.7243,110.81,73.8957,101.166,-115.579,-8.73474,0.742686
1.18,93.7009,110.834,75.8724,98.8365,-116.488,-45.4161,0.638787
1.2,95.6307,110.853,77.8023,96.494,-117.126,-31.9208,0.53205
1.22,97.5134,110.869,79.6851,94.1395,-117.726,-29.998,0.423497
1.24,99.3489,110.881,81.5206,91.7735,-118.3,-28.6889,0.314097
1.26,101.137,110.889,83.3087,89.4067,-118.339,-1.95099,0.20476
1.28,102.876,110.894,85.0482,86.9751,-121.581,-162.135,0.0963266
1.3,104.569,110.895,86.7403,84.6043,-118.539,152.132,-0.0104283
1.32,106.213,110.893,88.3848,82.2253,-118.952,-20.634,-0.114805
1.34,107.809,110.889,89.9806,79.7888,-121.821,-143.455,-0.216179
1.36,109.357,110.881,91.5285,77.3959,-119.645,108.773,-0.314
1.38,110.855,110.872,93.0264,74.8974,-124.926,-264.02,-0.407798
1.4,112.305,110.861,94.4773,72.5441,-117.664,363.068,-0.497175
1.42,113.707,110.847,95.879,70.087,-122.855,-259.525,-0.581808
1.44,115.06,110.833,97.2316,67.6269,-123.005,-7.52737,-0.661449
1.46,116.364,110.817,98.5359,65.2146,-120.618,119.384,-0.735917
1.48,117.619,110.8,99.7909,62.7508,-123.188,-128.503,-0.805098
1.5,118.824,110.782,100.997,60.2863,-123.225,-1.86684,-0.86894
1.52,119.982,110.764,102.154,57.8719,-120.724,125.072,-0.927452
1.54,121.091,110.746,103.263,55.458,-120.692,1.55198,-0.980693
1.56,122.15,110.727,104.323,52.9956,-123.122,-121.494,-1.02878
1.58,123.161,110.708,105.334,50.5348,-123.039,4.15733,-1.07186
1.6,124.123,110.69,106.296,48.1261,-120.432,130.373,-1.11013
1.62,125.036,110.672,107.21,45.6704,-122.79,-117.905,-1.14382
1.64,125.902,110.655,108.075,43.2678,-120.129,133.024,-1.1732
1.66,126.718,110.638,108.891,40.8182,-122.479,-117.461,-1.19854
1.68,127.486,110.622,109.66,38.4225,-119.785,134.676,-1.22014
1.7,128.206,110.606,110.38,35.9803,-122.11,-116.239,-1.23832
1.72,128.877,110.592,111.051,33.5921,-119.409,135.018,-1.2534
1.74,129.5,110.578,111.675,31.158,-121.707,-114.881,-1.26571
1.76,130.076,110.565,112.25,28.7775,-119.023,134.198,-1.27557
1.78,130.603,110.553,112.777,26.3511,-121.321,-114.889,-1.28331
1.8,131.081,110.543,113.256,23.9283,-121.138,9.16415,-1.28923
1.82,131.512,110.533,113.687,21.5591,-118.461,133.827,-1.29362
1.84,131.896,110.524,114.071,19.1934,-118.284,8.85861,-1.29677
1.86,132.231,110.517,114.406,16.7806,-120.642,-117.897,-1.29893
1.88,132.519,110.51,114.694,14.3708,-120.491,7.56806,-1.30032
1.9,132.759,110.505,114.934,12.0133,-117.874,130.836,-1.30116
1.92,132.951,110.5,115.126,9.60814,-120.258,-119.207,-1.30162
1.94,133.096,110.497,115.271,7.25457,-117.679,128.96,-1.30184
1.96,133.196,110.495,115.371,5.00219,-112.619,252.993,-1.30192
1.98,133.257,110.493,115.432,3.05117,-97.5509,753.401,-1.30195
2,133.289,110.493,115.464,1.60038,-72.5393,1250.58,-1.30195
2.02,133.301,110.492,115.476,0.600187,-50.0098,1126.48,-1.30195
2.04,133.304,110.492,115.479,0.150083,-22.5052,1375.23,-1.30195
2.06,133.304,110.492,115.479,0,-7.50417,750.052,-1.30195
